"CanoeDarkAle_100x - RawData"
"Wavelength nm.","Abs."
190.00,2.712
191.00,3.203
192.00,3.518
193.00,3.389
194.00,3.417
195.00,3.404
196.00,3.569
197.00,3.635
198.00,3.280
199.00,3.641
200.00,3.600
201.00,3.372
202.00,3.554
203.00,3.406
204.00,3.196
205.00,3.171
206.00,3.049
207.00,2.935
208.00,2.861
209.00,2.760
210.00,2.645
211.00,2.543
212.00,2.462
213.00,2.374
214.00,2.284
215.00,2.207
216.00,2.120
217.00,2.042
218.00,1.962
219.00,1.886
220.00,1.812
221.00,1.744
222.00,1.677
223.00,1.611
224.00,1.546
225.00,1.482
226.00,1.419
227.00,1.356
228.00,1.294
229.00,1.237
230.00,1.183
231.00,1.132
232.00,1.085
233.00,1.042
234.00,1.002
235.00,0.967
236.00,0.935
237.00,0.907
238.00,0.882
239.00,0.860
240.00,0.841
241.00,0.825
242.00,0.813
243.00,0.805
244.00,0.798
245.00,0.794
246.00,0.791
247.00,0.790
248.00,0.789
249.00,0.790
250.00,0.791
251.00,0.794
252.00,0.796
253.00,0.800
254.00,0.803
255.00,0.807
256.00,0.811
257.00,0.815
258.00,0.818
259.00,0.820
260.00,0.822
261.00,0.824
262.00,0.827
263.00,0.829
264.00,0.831
265.00,0.833
266.00,0.834
267.00,0.836
268.00,0.836
269.00,0.836
270.00,0.836
271.00,0.834
272.00,0.833
273.00,0.831
274.00,0.829
275.00,0.826
276.00,0.822
277.00,0.817
278.00,0.813
279.00,0.807
280.00,0.801
281.00,0.794
282.00,0.787
283.00,0.779
284.00,0.770
285.00,0.760
286.00,0.750
287.00,0.740
288.00,0.730
289.00,0.719
290.00,0.707
291.00,0.695
292.00,0.683
293.00,0.673
294.00,0.663
295.00,0.653
296.00,0.644
297.00,0.635
298.00,0.626
299.00,0.616
300.00,0.607
301.00,0.598
302.00,0.589
303.00,0.579
304.00,0.570
305.00,0.561
306.00,0.552
307.00,0.541
308.00,0.532
309.00,0.522
310.00,0.513
311.00,0.503
312.00,0.493
313.00,0.484
314.00,0.475
315.00,0.466
316.00,0.458
317.00,0.449
318.00,0.439
319.00,0.431
320.00,0.423
321.00,0.414
322.00,0.405
323.00,0.396
324.00,0.388
325.00,0.379
326.00,0.371
327.00,0.364
328.00,0.355
329.00,0.348
330.00,0.340
331.00,0.332
332.00,0.325
333.00,0.317
334.00,0.311
335.00,0.304
336.00,0.298
337.00,0.292
338.00,0.286
339.00,0.279
340.00,0.274
341.00,0.267
342.00,0.261
343.00,0.256
344.00,0.251
345.00,0.246
346.00,0.241
347.00,0.236
348.00,0.231
349.00,0.227
350.00,0.222
351.00,0.218
352.00,0.214
353.00,0.210
354.00,0.206
355.00,0.202
356.00,0.199
357.00,0.195
358.00,0.191
359.00,0.188
360.00,0.184
361.00,0.181
362.00,0.178
363.00,0.175
364.00,0.172
365.00,0.169
366.00,0.166
367.00,0.163
368.00,0.161
369.00,0.158
370.00,0.155
371.00,0.153
372.00,0.150
373.00,0.148
374.00,0.145
375.00,0.143
376.00,0.140
377.00,0.138
378.00,0.135
379.00,0.133
380.00,0.131
381.00,0.128
382.00,0.126
383.00,0.124
384.00,0.122
385.00,0.120
386.00,0.118
387.00,0.116
388.00,0.114
389.00,0.113
390.00,0.110
391.00,0.109
392.00,0.107
393.00,0.105
394.00,0.103
395.00,0.102
396.00,0.100
397.00,0.099
398.00,0.097
399.00,0.096
400.00,0.094
401.00,0.093
402.00,0.091
403.00,0.090
404.00,0.088
405.00,0.087
406.00,0.086
407.00,0.084
408.00,0.083
409.00,0.082
410.00,0.081
411.00,0.080
412.00,0.078
413.00,0.077
414.00,0.076
415.00,0.075
416.00,0.074
417.00,0.073
418.00,0.072
419.00,0.071
420.00,0.070
421.00,0.069
422.00,0.068
423.00,0.067
424.00,0.066
425.00,0.065
426.00,0.064
427.00,0.064
428.00,0.063
429.00,0.062
430.00,0.061
431.00,0.060
432.00,0.059
433.00,0.058
434.00,0.058
435.00,0.057
436.00,0.056
437.00,0.055
438.00,0.054
439.00,0.054
440.00,0.053
441.00,0.052
442.00,0.052
443.00,0.051
444.00,0.050
445.00,0.050
446.00,0.049
447.00,0.048
448.00,0.048
449.00,0.047
450.00,0.046
451.00,0.046
452.00,0.045
453.00,0.045
454.00,0.044
455.00,0.043
456.00,0.043
457.00,0.042
458.00,0.042
459.00,0.041
460.00,0.040
461.00,0.040
462.00,0.039
463.00,0.039
464.00,0.038
465.00,0.038
466.00,0.037
467.00,0.037
468.00,0.036
469.00,0.036
470.00,0.035
471.00,0.035
472.00,0.034
473.00,0.034
474.00,0.033
475.00,0.033
476.00,0.032
477.00,0.032
478.00,0.031
479.00,0.031
480.00,0.030
481.00,0.030
482.00,0.029
483.00,0.029
484.00,0.028
485.00,0.028
486.00,0.028
487.00,0.027
488.00,0.027
489.00,0.026
490.00,0.026
491.00,0.026
492.00,0.025
493.00,0.025
494.00,0.024
495.00,0.024
496.00,0.024
497.00,0.023
498.00,0.023
499.00,0.023
500.00,0.022
501.00,0.022
502.00,0.022
503.00,0.021
504.00,0.021
505.00,0.021
506.00,0.020
507.00,0.020
508.00,0.020
509.00,0.019
510.00,0.019
511.00,0.019
512.00,0.019
513.00,0.018
514.00,0.018
515.00,0.018
516.00,0.017
517.00,0.017
518.00,0.017
519.00,0.017
520.00,0.016
521.00,0.016
522.00,0.016
523.00,0.015
524.00,0.015
525.00,0.015
526.00,0.015
527.00,0.014
528.00,0.014
529.00,0.014
530.00,0.014
531.00,0.013
532.00,0.013
533.00,0.013
534.00,0.013
535.00,0.012
536.00,0.013
537.00,0.012
538.00,0.012
539.00,0.012
540.00,0.011
541.00,0.011
542.00,0.011
543.00,0.011
544.00,0.011
545.00,0.010
546.00,0.010
547.00,0.010
548.00,0.010
549.00,0.010
550.00,0.010
551.00,0.009
552.00,0.009
553.00,0.009
554.00,0.009
555.00,0.009
556.00,0.009
557.00,0.008
558.00,0.008
559.00,0.008
560.00,0.008
561.00,0.008
562.00,0.008
563.00,0.007
564.00,0.007
565.00,0.007
566.00,0.007
567.00,0.007
568.00,0.007
569.00,0.007
570.00,0.006
571.00,0.006
572.00,0.006
573.00,0.006
574.00,0.006
575.00,0.006
576.00,0.006
577.00,0.006
578.00,0.005
579.00,0.005
580.00,0.005
581.00,0.005
582.00,0.005
583.00,0.005
584.00,0.005
585.00,0.005
586.00,0.005
587.00,0.005
588.00,0.004
589.00,0.004
590.00,0.004
591.00,0.004
592.00,0.004
593.00,0.004
594.00,0.004
595.00,0.004
596.00,0.004
597.00,0.004
598.00,0.004
599.00,0.004
600.00,0.004
601.00,0.004
602.00,0.004
603.00,0.003
604.00,0.003
605.00,0.003
606.00,0.003
607.00,0.003
608.00,0.003
609.00,0.003
610.00,0.003
611.00,0.003
612.00,0.003
613.00,0.003
614.00,0.003
615.00,0.002
616.00,0.002
617.00,0.002
618.00,0.002
619.00,0.002
620.00,0.002
621.00,0.002
622.00,0.002
623.00,0.002
624.00,0.002
625.00,0.002
626.00,0.002
627.00,0.002
628.00,0.001
629.00,0.001
630.00,0.001
631.00,0.001
632.00,0.001
633.00,0.001
634.00,0.001
635.00,0.001
636.00,0.001
637.00,0.001
638.00,0.001
639.00,0.001
640.00,0.001
641.00,0.001
642.00,0.001
643.00,0.001
644.00,0.000
645.00,0.000
646.00,0.000
647.00,0.000
648.00,0.000
649.00,0.000
650.00,0.000
651.00,0.000
652.00,0.000
653.00,0.000
654.00,0.000
655.00,0.000
656.00,0.000
657.00,0.000
658.00,0.000
659.00,-0.000
660.00,-0.000
661.00,-0.000
662.00,-0.000
663.00,-0.000
664.00,-0.000
665.00,-0.000
666.00,-0.000
667.00,-0.000
668.00,-0.000
669.00,-0.000
670.00,-0.000
671.00,-0.000
672.00,-0.001
673.00,-0.001
674.00,-0.001
675.00,-0.001
676.00,-0.001
677.00,-0.001
678.00,-0.001
679.00,-0.001
680.00,-0.001
681.00,-0.001
682.00,-0.001
683.00,-0.001
684.00,-0.001
685.00,-0.001
686.00,-0.001
687.00,-0.001
688.00,-0.001
689.00,-0.001
690.00,-0.001
691.00,-0.001
692.00,-0.001
693.00,-0.001
694.00,-0.001
695.00,-0.001
696.00,-0.001
697.00,-0.001
698.00,-0.001
699.00,-0.001
700.00,-0.001
701.00,-0.001
702.00,-0.001
703.00,-0.001
704.00,-0.001
705.00,-0.001
706.00,-0.001
707.00,-0.001
708.00,-0.001
709.00,-0.000
710.00,-0.000
711.00,-0.000
712.00,-0.000
713.00,0.000
714.00,0.000
715.00,0.000
716.00,0.000
717.00,0.001
718.00,0.001
719.00,0.001
720.00,0.001
721.00,0.001
722.00,0.002
723.00,0.002
724.00,0.002
725.00,0.002
726.00,0.002
727.00,0.003
728.00,0.003
729.00,0.004
730.00,0.004
731.00,0.005
732.00,0.005
733.00,0.006
734.00,0.006
735.00,0.006
736.00,0.007
737.00,0.007
738.00,0.007
739.00,0.007
740.00,0.007
741.00,0.007
742.00,0.007
743.00,0.007
744.00,0.007
745.00,0.007
746.00,0.007
747.00,0.007
748.00,0.007
749.00,0.007
750.00,0.007
751.00,0.007
752.00,0.007
753.00,0.007
754.00,0.007
755.00,0.007
756.00,0.007
757.00,0.007
758.00,0.007
759.00,0.007
760.00,0.007
761.00,0.007
762.00,0.007
763.00,0.007
764.00,0.007
765.00,0.007
766.00,0.006
767.00,0.006
768.00,0.006
769.00,0.006
770.00,0.006
771.00,0.006
772.00,0.006
773.00,0.006
774.00,0.006
775.00,0.006
776.00,0.006
777.00,0.006
778.00,0.006
779.00,0.005
780.00,0.005
781.00,0.005
782.00,0.005
783.00,0.005
784.00,0.005
785.00,0.005
786.00,0.005
787.00,0.005
788.00,0.005
789.00,0.004
790.00,0.004
791.00,0.004
792.00,0.004
793.00,0.004
794.00,0.004
795.00,0.004
796.00,0.004
797.00,0.003
798.00,0.003
799.00,0.003
800.00,0.003
801.00,0.003
802.00,0.003
803.00,0.003
804.00,0.003
805.00,0.003
806.00,0.003
807.00,0.003
808.00,0.003
809.00,0.003
810.00,0.003
811.00,0.003
812.00,0.003
813.00,0.003
814.00,0.003
815.00,0.003
816.00,0.003
817.00,0.003
818.00,0.003
819.00,0.003
820.00,0.004
821.00,0.004
822.00,0.004
823.00,0.004
824.00,0.004
825.00,0.005
826.00,0.005
827.00,0.006
828.00,0.006
829.00,0.007
830.00,0.007
831.00,0.008
832.00,0.008
833.00,0.009
834.00,0.009
835.00,0.009
836.00,0.009
837.00,0.010
838.00,0.010
839.00,0.010
840.00,0.010
841.00,0.010
842.00,0.010
843.00,0.010
844.00,0.010
845.00,0.010
846.00,0.011
847.00,0.011
848.00,0.011
849.00,0.011
850.00,0.011
851.00,0.011
852.00,0.011
853.00,0.011
854.00,0.011
855.00,0.011
856.00,0.012
857.00,0.012
858.00,0.012
859.00,0.012
860.00,0.012
861.00,0.012
862.00,0.012
863.00,0.012
864.00,0.012
865.00,0.012
866.00,0.012
867.00,0.013
868.00,0.013
869.00,0.013
870.00,0.013
871.00,0.013
872.00,0.013
873.00,0.014
874.00,0.014
875.00,0.014
876.00,0.014
877.00,0.014
878.00,0.015
879.00,0.015
880.00,0.015
881.00,0.015
882.00,0.015
883.00,0.016
884.00,0.016
885.00,0.016
886.00,0.016
887.00,0.017
888.00,0.017
889.00,0.017
890.00,0.017
891.00,0.017
892.00,0.018
893.00,0.018
894.00,0.018
895.00,0.018
896.00,0.019
897.00,0.019
898.00,0.019
899.00,0.019
900.00,0.020
