"TrouDuDiableSaisonDuTracteurAleForteAgricole_50x - RawData"
"Wavelength nm.","Abs."
190.00,2.977
191.00,2.942
192.00,3.234
193.00,3.524
194.00,3.503
195.00,3.349
196.00,3.519
197.00,3.674
198.00,3.640
199.00,3.463
200.00,3.801
201.00,3.577
202.00,3.533
203.00,3.490
204.00,3.610
205.00,3.571
206.00,3.702
207.00,3.600
208.00,3.579
209.00,3.574
210.00,3.318
211.00,3.246
212.00,3.121
213.00,3.010
214.00,2.906
215.00,2.779
216.00,2.644
217.00,2.509
218.00,2.402
219.00,2.274
220.00,2.153
221.00,2.042
222.00,1.933
223.00,1.827
224.00,1.717
225.00,1.614
226.00,1.511
227.00,1.404
228.00,1.301
229.00,1.206
230.00,1.117
231.00,1.037
232.00,0.965
233.00,0.901
234.00,0.847
235.00,0.801
236.00,0.761
237.00,0.727
238.00,0.700
239.00,0.678
240.00,0.662
241.00,0.648
242.00,0.639
243.00,0.633
244.00,0.629
245.00,0.627
246.00,0.627
247.00,0.628
248.00,0.629
249.00,0.632
250.00,0.635
251.00,0.639
252.00,0.643
253.00,0.648
254.00,0.652
255.00,0.656
256.00,0.660
257.00,0.664
258.00,0.666
259.00,0.667
260.00,0.668
261.00,0.669
262.00,0.669
263.00,0.670
264.00,0.671
265.00,0.671
266.00,0.670
267.00,0.668
268.00,0.666
269.00,0.662
270.00,0.657
271.00,0.652
272.00,0.646
273.00,0.639
274.00,0.631
275.00,0.622
276.00,0.612
277.00,0.601
278.00,0.589
279.00,0.577
280.00,0.564
281.00,0.550
282.00,0.535
283.00,0.519
284.00,0.502
285.00,0.484
286.00,0.467
287.00,0.451
288.00,0.434
289.00,0.418
290.00,0.400
291.00,0.382
292.00,0.366
293.00,0.352
294.00,0.340
295.00,0.329
296.00,0.320
297.00,0.311
298.00,0.303
299.00,0.296
300.00,0.290
301.00,0.284
302.00,0.279
303.00,0.274
304.00,0.270
305.00,0.265
306.00,0.262
307.00,0.258
308.00,0.255
309.00,0.251
310.00,0.249
311.00,0.246
312.00,0.243
313.00,0.241
314.00,0.238
315.00,0.235
316.00,0.233
317.00,0.231
318.00,0.228
319.00,0.225
320.00,0.222
321.00,0.219
322.00,0.216
323.00,0.213
324.00,0.209
325.00,0.206
326.00,0.202
327.00,0.199
328.00,0.195
329.00,0.191
330.00,0.186
331.00,0.182
332.00,0.178
333.00,0.173
334.00,0.168
335.00,0.164
336.00,0.161
337.00,0.156
338.00,0.152
339.00,0.147
340.00,0.143
341.00,0.138
342.00,0.134
343.00,0.129
344.00,0.125
345.00,0.121
346.00,0.118
347.00,0.114
348.00,0.110
349.00,0.107
350.00,0.103
351.00,0.100
352.00,0.097
353.00,0.094
354.00,0.090
355.00,0.088
356.00,0.085
357.00,0.082
358.00,0.079
359.00,0.077
360.00,0.074
361.00,0.072
362.00,0.070
363.00,0.068
364.00,0.066
365.00,0.064
366.00,0.063
367.00,0.061
368.00,0.059
369.00,0.057
370.00,0.055
371.00,0.054
372.00,0.052
373.00,0.051
374.00,0.050
375.00,0.049
376.00,0.047
377.00,0.046
378.00,0.045
379.00,0.044
380.00,0.042
381.00,0.041
382.00,0.040
383.00,0.039
384.00,0.038
385.00,0.037
386.00,0.036
387.00,0.036
388.00,0.035
389.00,0.034
390.00,0.033
391.00,0.032
392.00,0.031
393.00,0.031
394.00,0.030
395.00,0.029
396.00,0.029
397.00,0.028
398.00,0.027
399.00,0.027
400.00,0.026
401.00,0.026
402.00,0.025
403.00,0.025
404.00,0.024
405.00,0.024
406.00,0.023
407.00,0.023
408.00,0.022
409.00,0.022
410.00,0.022
411.00,0.021
412.00,0.021
413.00,0.020
414.00,0.020
415.00,0.020
416.00,0.019
417.00,0.019
418.00,0.019
419.00,0.019
420.00,0.018
421.00,0.018
422.00,0.018
423.00,0.018
424.00,0.017
425.00,0.017
426.00,0.017
427.00,0.017
428.00,0.016
429.00,0.016
430.00,0.016
431.00,0.016
432.00,0.016
433.00,0.015
434.00,0.015
435.00,0.015
436.00,0.015
437.00,0.014
438.00,0.014
439.00,0.014
440.00,0.014
441.00,0.014
442.00,0.014
443.00,0.013
444.00,0.013
445.00,0.013
446.00,0.013
447.00,0.013
448.00,0.013
449.00,0.013
450.00,0.012
451.00,0.012
452.00,0.012
453.00,0.012
454.00,0.012
455.00,0.012
456.00,0.012
457.00,0.011
458.00,0.011
459.00,0.011
460.00,0.011
461.00,0.011
462.00,0.011
463.00,0.011
464.00,0.011
465.00,0.010
466.00,0.010
467.00,0.010
468.00,0.010
469.00,0.010
470.00,0.010
471.00,0.010
472.00,0.010
473.00,0.010
474.00,0.009
475.00,0.009
476.00,0.009
477.00,0.009
478.00,0.009
479.00,0.009
480.00,0.009
481.00,0.009
482.00,0.009
483.00,0.008
484.00,0.008
485.00,0.008
486.00,0.008
487.00,0.008
488.00,0.008
489.00,0.008
490.00,0.008
491.00,0.008
492.00,0.008
493.00,0.008
494.00,0.007
495.00,0.007
496.00,0.007
497.00,0.007
498.00,0.007
499.00,0.007
500.00,0.007
501.00,0.007
502.00,0.007
503.00,0.007
504.00,0.007
505.00,0.007
506.00,0.006
507.00,0.006
508.00,0.006
509.00,0.006
510.00,0.006
511.00,0.006
512.00,0.006
513.00,0.006
514.00,0.006
515.00,0.006
516.00,0.006
517.00,0.006
518.00,0.006
519.00,0.005
520.00,0.005
521.00,0.005
522.00,0.005
523.00,0.005
524.00,0.005
525.00,0.005
526.00,0.005
527.00,0.005
528.00,0.005
529.00,0.005
530.00,0.005
531.00,0.004
532.00,0.004
533.00,0.004
534.00,0.004
535.00,0.004
536.00,0.004
537.00,0.004
538.00,0.004
539.00,0.004
540.00,0.004
541.00,0.004
542.00,0.004
543.00,0.004
544.00,0.004
545.00,0.004
546.00,0.004
547.00,0.003
548.00,0.003
549.00,0.003
550.00,0.003
551.00,0.003
552.00,0.003
553.00,0.003
554.00,0.003
555.00,0.003
556.00,0.003
557.00,0.003
558.00,0.003
559.00,0.003
560.00,0.003
561.00,0.003
562.00,0.003
563.00,0.003
564.00,0.002
565.00,0.002
566.00,0.002
567.00,0.002
568.00,0.002
569.00,0.002
570.00,0.002
571.00,0.002
572.00,0.002
573.00,0.002
574.00,0.002
575.00,0.002
576.00,0.002
577.00,0.002
578.00,0.002
579.00,0.002
580.00,0.002
581.00,0.002
582.00,0.002
583.00,0.002
584.00,0.002
585.00,0.002
586.00,0.002
587.00,0.002
588.00,0.001
589.00,0.002
590.00,0.002
591.00,0.002
592.00,0.002
593.00,0.001
594.00,0.001
595.00,0.001
596.00,0.001
597.00,0.001
598.00,0.001
599.00,0.001
600.00,0.001
601.00,0.001
602.00,0.001
603.00,0.001
604.00,0.001
605.00,0.001
606.00,0.001
607.00,0.001
608.00,0.001
609.00,0.001
610.00,0.001
611.00,0.001
612.00,0.001
613.00,0.001
614.00,0.001
615.00,0.001
616.00,0.001
617.00,0.001
618.00,0.001
619.00,0.001
620.00,0.001
621.00,0.001
622.00,0.001
623.00,0.001
624.00,0.001
625.00,0.001
626.00,0.001
627.00,0.001
628.00,0.001
629.00,0.001
630.00,0.000
631.00,0.000
632.00,0.000
633.00,0.000
634.00,0.000
635.00,0.000
636.00,0.000
637.00,0.000
638.00,0.000
639.00,0.000
640.00,0.000
641.00,0.000
642.00,0.000
643.00,0.000
644.00,0.000
645.00,0.000
646.00,0.000
647.00,0.000
648.00,0.000
649.00,0.000
650.00,0.000
651.00,-0.000
652.00,-0.000
653.00,-0.000
654.00,-0.000
655.00,-0.000
656.00,-0.000
657.00,-0.000
658.00,-0.000
659.00,-0.000
660.00,-0.000
661.00,-0.000
662.00,-0.000
663.00,-0.000
664.00,-0.000
665.00,-0.000
666.00,-0.000
667.00,-0.000
668.00,-0.000
669.00,-0.000
670.00,-0.000
671.00,-0.000
672.00,-0.000
673.00,-0.000
674.00,-0.000
675.00,-0.000
676.00,-0.000
677.00,-0.001
678.00,-0.000
679.00,-0.001
680.00,-0.001
681.00,-0.001
682.00,-0.001
683.00,-0.001
684.00,-0.001
685.00,-0.001
686.00,-0.001
687.00,-0.001
688.00,-0.001
689.00,-0.001
690.00,-0.001
691.00,-0.001
692.00,-0.001
693.00,-0.001
694.00,-0.001
695.00,-0.001
696.00,-0.001
697.00,-0.001
698.00,-0.001
699.00,-0.000
700.00,-0.000
701.00,-0.000
702.00,-0.000
703.00,-0.000
704.00,-0.000
705.00,-0.000
706.00,-0.000
707.00,0.000
708.00,0.000
709.00,0.000
710.00,0.000
711.00,0.000
712.00,0.001
713.00,0.001
714.00,0.001
715.00,0.001
716.00,0.001
717.00,0.002
718.00,0.002
719.00,0.002
720.00,0.002
721.00,0.002
722.00,0.002
723.00,0.003
724.00,0.003
725.00,0.003
726.00,0.003
727.00,0.004
728.00,0.004
729.00,0.004
730.00,0.005
731.00,0.005
732.00,0.006
733.00,0.006
734.00,0.007
735.00,0.007
736.00,0.007
737.00,0.008
738.00,0.008
739.00,0.008
740.00,0.008
741.00,0.008
742.00,0.008
743.00,0.008
744.00,0.008
745.00,0.008
746.00,0.008
747.00,0.008
748.00,0.008
749.00,0.008
750.00,0.008
751.00,0.008
752.00,0.008
753.00,0.008
754.00,0.008
755.00,0.008
756.00,0.008
757.00,0.008
758.00,0.008
759.00,0.008
760.00,0.008
761.00,0.008
762.00,0.008
763.00,0.008
764.00,0.008
765.00,0.008
766.00,0.007
767.00,0.007
768.00,0.007
769.00,0.007
770.00,0.007
771.00,0.007
772.00,0.007
773.00,0.007
774.00,0.007
775.00,0.007
776.00,0.007
777.00,0.007
778.00,0.007
779.00,0.006
780.00,0.006
781.00,0.006
782.00,0.006
783.00,0.006
784.00,0.006
785.00,0.006
786.00,0.006
787.00,0.006
788.00,0.006
789.00,0.005
790.00,0.005
791.00,0.005
792.00,0.005
793.00,0.005
794.00,0.005
795.00,0.005
796.00,0.005
797.00,0.005
798.00,0.004
799.00,0.004
800.00,0.004
801.00,0.004
802.00,0.004
803.00,0.004
804.00,0.004
805.00,0.004
806.00,0.004
807.00,0.004
808.00,0.004
809.00,0.004
810.00,0.004
811.00,0.004
812.00,0.004
813.00,0.004
814.00,0.004
815.00,0.004
816.00,0.004
817.00,0.004
818.00,0.004
819.00,0.004
820.00,0.005
821.00,0.005
822.00,0.005
823.00,0.005
824.00,0.005
825.00,0.006
826.00,0.006
827.00,0.007
828.00,0.007
829.00,0.008
830.00,0.008
831.00,0.009
832.00,0.009
833.00,0.010
834.00,0.010
835.00,0.010
836.00,0.010
837.00,0.011
838.00,0.011
839.00,0.011
840.00,0.011
841.00,0.011
842.00,0.011
843.00,0.011
844.00,0.012
845.00,0.012
846.00,0.012
847.00,0.012
848.00,0.012
849.00,0.012
850.00,0.012
851.00,0.012
852.00,0.012
853.00,0.013
854.00,0.013
855.00,0.013
856.00,0.013
857.00,0.013
858.00,0.013
859.00,0.013
860.00,0.013
861.00,0.013
862.00,0.014
863.00,0.014
864.00,0.014
865.00,0.014
866.00,0.014
867.00,0.014
868.00,0.014
869.00,0.014
870.00,0.015
871.00,0.015
872.00,0.015
873.00,0.015
874.00,0.015
875.00,0.016
876.00,0.016
877.00,0.016
878.00,0.016
879.00,0.016
880.00,0.017
881.00,0.017
882.00,0.017
883.00,0.017
884.00,0.018
885.00,0.018
886.00,0.018
887.00,0.018
888.00,0.019
889.00,0.019
890.00,0.019
891.00,0.019
892.00,0.019
893.00,0.020
894.00,0.020
895.00,0.020
896.00,0.020
897.00,0.021
898.00,0.021
899.00,0.021
900.00,0.021
